#11
#1641
#     BM29  -  E.S.R.F.  - Mon Sep 26 12:13:48 2005
# file name: /data/bm29/inhouse/IH-HC-822/Fe_cal_01.dat
# -------------------------------------------------------
# monochromator:  Si (3 1 1) flat
# adopted d spacing  1.63702 Angstroems
# first crystal initial temperature -125.585 C
# primary slit vertical aperture 0.3 mm
# exeprimental slit horizontal aperture 8 mm
# experimental slit vertical aperture 8 mm
# initial ring current 48.7982 mA
# electrometer ranges for I0 - 1e-07 mA, I1 - 3e-08 mA (I2 - 3e-08 mA)
# -------------------------------------------------------
# EXAFS scan with optimized energy mesh
# parameter file name: /data/bm29/external/hs2955/Y_KX.par
# Energy limits  7.04 - 7.86 KeV
# Detuning = 0.1 Loeffen
# acquisition time per scan point 3 s
# target I0 counts for feedback 1.21399e+06 1.29394e+06 counts/s, tif = 1, tiw = 0.1
# E(keV), alpha, E_hdh(keV), I0, I1, (13 fluo channels), point, qg1, T1, T2, (I2, ref)
7.04000187 -0.683638 3641557 7214189 9.50123 1 2592.51 0 0 489814 2.68978 21526.7
7.04050541 -0.683943 3657382 7247749 9.50123 2 2592.51 0 0 477664 2.71954 21530.7
7.04100275 -0.684139 3659294 7252958 9.50123 3 2596.32 0 0 490846 2.69303 21534.2
7.04150009 -0.684445 3654407 7245489 9.50123 4 2600.9 0 0 491330 2.69102 21538.1
7.04200363 -0.684767 3651436 7241926 9.50123 5 2604.72 0 0 489029 2.69522 21541.7
7.04250145 -0.685132 3647367 7236496 9.50123 6 2607.77 0 0 480781 2.71148 21545.5
7.04300404 -0.685327 3649759 7242660 9.50123 7 2609.29 0 0 487561 2.69833 21549.1
7.04350281 -0.685653 3647152 7239843 9.50123 8 2611.58 0 0 489142 2.6947 21553.2
7.04400063 -0.686074 3647341 7243267 9.50123 9 2613.11 0 0 478298 2.71759 21556.9
7.04450369 -0.686416 3648653 7248353 9.50123 10 2615.4 0 0 478102 2.7187 21560.4
7.04500198 -0.686598 3646184 7244764 9.50123 11 2617.69 0 0 488940 2.69579 21564
7.04550076 -0.686941 3644960 7244819 9.50123 12 2619.21 0 0 483587 2.70681 21567.8
7.0460043 -0.687213 3648733 7254293 9.50123 13 2620.74 0 0 489275 2.69642 21571.4
7.04650259 -0.68749 3647451 7253750 9.50123 14 2623.03 0 0 491240 2.69234 21575.2
7.04700184 -0.687904 3647592 7257035 9.50123 15 2625.31 0 0 491751 2.69175 21578.9
7.04750061 -0.688148 3644941 7253531 9.50123 16 2627.6 0 0 493367 2.68799 21582.8
7.04800415 -0.688541 3648464 7263397 9.50123 17 2629.13 0 0 494219 2.68762 21586.3
7.04850292 -0.688759 3643354 7254805 9.50123 18 2632.18 0 0 493557 2.68778 21590.2
7.04900265 -0.688964 3643991 7257560 9.50123 19 2633.71 0 0 493023 2.68924 21594.2
7.04950142 -0.689361 3646522 7265484 9.50123 20 2635.23 0 0 487673 2.70124 21597.8
7.05000019 -0.689494 3642976 7259382 9.50123 21 2637.52 0 0 494370 2.68676 21601.6
7.05050516 -0.689808 3645023 7265743 9.50123 22 2639.05 0 0 490308 2.69589 21605.2
7.05100441 -0.690144 3639133 7256442 9.50123 23 2641.34 0 0 495663 2.68375 21609
7.05150366 -0.690473 3640040 7260641 9.50123 24 2642.1 0 0 494023 2.68764 21612.6
7.05200291 -0.690712 3638460 7259219 9.50123 25 2642.86 0 0 496347 2.68275 21616.4
7.05250216 -0.691012 3638937 7262349 9.50123 26 2643.63 0 0 495477 2.68494 21620
7.05300236 -0.691234 3637747 7261592 9.50123 27 2644.39 0 0 496092 2.68359 21623.9
7.05350208 -0.691542 3636337 7261009 9.50123 28 2645.15 0 0 495343 2.68502 21627.7
7.05400181 -0.691839 3636082 7262657 9.50123 29 2645.15 0 0 496161 2.6836 21631.5
7.05450153 -0.69201 3638428 7268589 9.50123 30 2645.15 0 0 495381 2.68599 21635.1
7.05500126 -0.692491 3635591 7266413 9.50123 31 2645.91 0 0 486634 2.7035 21638.9
7.05550194 -0.692756 3636660 7270474 9.50123 32 2645.91 0 0 497841 2.6813 21643
7.05600166 -0.693009 3639888 7278768 9.50123 33 2646.68 0 0 498097 2.68192 21646.6
7.05650187 -0.693361 3636491 7274539 9.50123 34 2648.2 0 0 496842 2.68386 21650.4
7.05700207 -0.693644 3636706 7277028 9.50123 35 2648.97 0 0 498687 2.6805 21654.2
7.05750227 -0.693912 3636463 7278494 9.50123 36 2649.73 0 0 498391 2.68129 21658.1
7.05800343 -0.694169 3637668 7282776 9.50123 37 2650.49 0 0 499062 2.68054 21662.2
7.05850363 -0.694503 3639897 7289673 9.50123 38 2652.02 0 0 485144 2.70977 21665.8
7.05900431 -0.694827 3638197 7288626 9.50123 39 2653.54 0 0 498929 2.68161 21669.6
7.05950499 -0.695078 3639006 7292081 9.50123 40 2655.07 0 0 497927 2.68409 21673.4
7.06000042 -0.695398 3642804 7302027 9.50123 41 2656.6 0 0 498538 2.68423 21677
7.0605011 -0.69574 3639456 7297813 9.50123 42 2659.65 0 0 497809 2.68511 21680.6
7.06100273 -0.695927 3638290 7296835 9.50123 43 2661.94 0 0 498495 2.6836 21684.7
7.06150341 -0.69629 3640738 7304396 9.50123 44 2663.46 0 0 501625 2.67838 21688.3
7.06200457 -0.696502 3639160 7302776 9.50123 45 2665.75 0 0 501305 2.67879 21692.1
7.06250048 -0.696727 3642747 7311622 9.50123 46 2668.04 0 0 501940 2.67874 21695.7
7.06300163 -0.69701 3641007 7310201 9.50123 47 2671.09 0 0 500363 2.68169 21699.4
7.06350279 -0.697337 3637861 7306269 9.50123 48 2674.14 0 0 500186 2.68151 21703.2
7.0640049 -0.697688 3637834 7308784 9.50123 49 2676.43 0 0 501543 2.67914 21706.8
7.06450033 -0.697898 3636216 7307067 9.50123 50 2678.72 0 0 502522 2.67696 21710.6
7.06500292 -0.698118 3636580 7309403 9.50123 51 2680.25 0 0 502389 2.67754 21714.7
7.06550455 -0.698362 3636280 7310584 9.50123 52 2681.77 0 0 491050 2.70053 21718.6
7.06600094 -0.69859 3632757 7305166 9.50123 53 2683.3 0 0 503436 2.67488 21722.4
7.06650257 -0.698924 3632186 7306457 9.50123 54 2684.06 0 0 490618 2.70085 21726.2
7.06700468 -0.699151 3631192 7306116 9.50123 55 2684.82 0 0 492700 2.69657 21730
7.06750107 -0.699425 3632707 7311168 9.50123 56 2685.59 0 0 497187 2.68819 21733.6
7.06800318 -0.699746 3629956 7307981 9.50123 57 2687.11 0 0 492249 2.69774 21737.2
7.06850004 -0.700148 3629711 7310426 9.50123 58 2687.88 0 0 493789 2.69495 21740.8
7.06900215 -0.700289 3625703 7303382 9.50123 59 2688.64 0 0 498945 2.6836 21744.6
7.06950521 -0.700683 3628199 7311287 9.50123 60 2687.88 0 0 493961 2.69472 21748.2
7.07000256 -0.700866 3629119 7314483 9.50123 61 2687.88 0 0 492119 2.69889 21751.8
7.07050514 -0.701127 3625422 7308933 9.50123 62 2688.64 0 0 493976 2.69436 21755.6
7.07100248 -0.701455 3629801 7320165 9.50123 63 2688.64 0 0 495794 2.69223 21759.4
7.07150507 -0.701684 3629129 7320485 9.50123 64 2689.4 0 0 503286 2.67727 21763
7.07200241 -0.701837 3625568 7314419 9.50123 65 2690.17 0 0 495382 2.69227 21766.8
7.07250547 -0.702134 3624947 7315338 9.50123 66 2690.17 0 0 495832 2.69149 21770.7
7.07300282 -0.702504 3628070 7324353 9.50123 67 2690.17 0 0 508480 2.66753 21774.3
7.07350063 -0.702731 3627278 7324417 9.50123 68 2690.93 0 0 507718 2.66904 21777.8
7.0740037 -0.70305 3624990 7322131 9.50123 69 2691.69 0 0 500025 2.684 21781.4
7.07450151 -0.70326 3623825 7321317 9.50123 70 2691.69 0 0 507543 2.66896 21785.2
7.07500505 -0.703429 3623759 7322418 9.50123 71 2691.69 0 0 504003 2.67611 21789.1
7.07550287 -0.703883 3628158 7334637 9.50123 72 2691.69 0 0 507612 2.67064 21792.6
7.07600117 -0.70413 3628527 7337197 9.50123 73 2692.45 0 0 508493 2.66926 21796.2
7.07650471 -0.704258 3625275 7331561 9.50123 74 2693.98 0 0 508373 2.66873 21800
7.077003 -0.70468 3629556 7343312 9.50123 75 2694.74 0 0 509210 2.66868 21803.6
7.0775013 -0.704886 3629899 7345519 9.50123 76 2696.27 0 0 509995 2.66744 21807.2
7.07800007 -0.705058 3630159 7347313 9.50123 77 2697.8 0 0 505332 2.67687 21810.7
7.07850361 -0.7053 3627290 7343282 9.50123 78 2699.32 0 0 496860 2.69323 21814.6
7.07900238 -0.705649 3630742 7352836 9.50123 79 2700.08 0 0 509521 2.66937 21818.1
7.07950115 -0.705906 3626413 7345957 9.50123 80 2702.37 0 0 505557 2.67624 21821.8
7.0800004 -0.706126 3626150 7347038 9.50123 81 2703.14 0 0 507420 2.67271 21825.4
7.08050442 -0.706352 3622830 7341974 9.50123 82 2703.9 0 0 507738 2.6714 21829.3
7.08100319 -0.706544 3625823 7349447 9.50123 83 2703.9 0 0 511843 2.66436 21832.9
7.08150244 -0.706808 3626622 7353009 9.50123 84 2704.66 0 0 507017 2.67432 21836.4
7.08200169 -0.707199 3624331 7351240 9.50123 85 2706.19 0 0 508901 2.67037 21840
7.08250093 -0.707326 3622599 7348657 9.50123 86 2706.95 0 0 509422 2.669 21843.6
7.08300018 -0.707397 3622737 7349458 9.50123 87 2707.71 0 0 511007 2.666 21847.1
7.08350515 -0.707834 3620044 7347205 9.50123 88 2708.48 0 0 510924 2.66585 21850.9
7.0840044 -0.707857 3623194 7353767 9.50123 89 2708.48 0 0 513443 2.66183 21854.5
7.08450413 -0.70816 3625297 7360271 9.50123 90 2709.24 0 0 513101 2.66338 21858.1
7.08500385 -0.708401 3624777 7360984 9.50123 91 2710.77 0 0 514138 2.66146 21861.7
7.08550358 -0.708638 3626082 7365383 9.50123 92 2712.29 0 0 500766 2.68841 21865.2
7.08600378 -0.708897 3625301 7365705 9.50123 93 2713.82 0 0 514011 2.66234 21869.1
7.08650351 -0.709032 3622917 7361849 9.50123 94 2715.34 0 0 499733 2.68999 21872.9
7.08700371 -0.709319 3627697 7373678 9.50123 95 2716.11 0 0 513446 2.66453 21876.7
7.08750296 -0.70958 3622151 7364330 9.50123 96 2718.39 0 0 512791 2.66453 21880.6
7.08800316 -0.70973 3624115 7369427 9.50123 97 2719.16 0 0 514426 2.66204 21884.2
7.08850336 -0.709993 3624670 7372494 9.50123 98 2720.68 0 0 509312 2.67245 21887.7
7.08900404 -0.710157 3623823 7371982 9.50123 99 2722.21 0 0 501262 2.68831 21891.3
7.08950424 -0.710222 3623856 7372526 9.50123 100 2723.74 0 0 513556 2.66416 21894.9
7.09000492 -0.71045 3621008 7368411 9.50123 101 2725.26 0 0 513746 2.66323 21898.5
7.09050035 -0.710572 3619121 7365471 9.50123 102 2726.02 0 0 512826 2.66462 21902.3
7.09100103 -0.710733 3620472 7369410 9.50123 103 2726.79 0 0 511890 2.66698 21905.9
7.09150171 -0.710933 3621504 7372986 9.50123 104 2727.55 0 0 512719 2.66585 21909.5
7.09200287 -0.7111 3618112 7367307 9.50123 105 2729.08 0 0 509703 2.67098 21913.6
7.09250307 -0.711328 3615831 7364341 9.50123 106 2729.84 0 0 515311 2.65963 21917.2
7.09300423 -0.711509 3616778 7367606 9.50123 107 2729.84 0 0 514747 2.66117 21920.8
7.09350538 -0.711682 3616078 7367450 9.50123 108 2729.84 0 0 515701 2.6593 21924.4
7.09400129 -0.711731 3612175 7359860 9.50123 109 2729.84 0 0 513381 2.66278 21928.2
7.09450245 -0.711851 3616723 7370013 9.50123 110 2729.08 0 0 516104 2.65887 21931.8
7.09500408 -0.712003 3617696 7373118 9.50123 111 2729.08 0 0 516023 2.65944 21935.9
7.09550524 -0.712145 3614305 7367253 9.50123 112 2729.84 0 0 503242 2.68373 21939.7
7.09600115 -0.712106 3615570 7369544 9.50123 113 2729.84 0 0 503701 2.68313 21943.5
7.09650278 -0.712258 3618412 7376457 9.50123 114 2729.84 0 0 508263 2.67505 21947.1
7.09700441 -0.712387 3621365 7383432 9.50123 115 2730.6 0 0 506075 2.68031 21950.7
7.0975008 -0.712386 3619769 7380170 9.50123 116 2732.13 0 0 505425 2.68115 21954.3
7.09800291 -0.712427 3620607 7382180 9.50123 117 2733.65 0 0 519508 2.65394 21957.9
7.09850502 -0.712426 3619322 7379553 9.50123 118 2735.18 0 0 519773 2.65308 21961.7
7.09900093 -0.712376 3617404 7375269 9.50123 119 2736.71 0 0 509489 2.67248 21965.4
7.09950304 -0.712353 3620250 7380901 9.50123 120 2737.47 0 0 505603 2.6809 21969
7.10000038 -0.712334 3616587 7373295 9.50123 121 2738.99 0 0 504018 2.68301 21972.8
7.10050249 -0.712292 3621996 7384016 9.50123 122 2739.76 0 0 513669 2.66549 21976.4
7.10100508 -0.712232 3620192 7379896 9.50123 123 2742.05 0 0 518200 2.65615 21980.2
7.10150146 -0.712146 3617217 7373193 9.50123 124 2744.34 0 0 504777 2.68149 21983.8
7.10200405 -0.711991 3614220 7365947 9.50123 125 2745.86 0 0 516765 2.65703 21987.4
7.10250139 -0.71179 3611238 7358388 9.50123 126 2746.62 0 0 518091 2.65344 21991.2
7.10300446 -0.711503 3615080 7364098 9.50123 127 2746.62 0 0 517681 2.65501 21995.1
7.1035018 -0.71106 3614430 7359513 9.50123 128 2747.39 0 0 516655 2.65637 21998.9
7.10400391 -0.710692 3609515 7346803 9.50123 129 2748.15 0 0 517570 2.65287 22002.7
7.10450172 -0.71032 3608535 7342081 9.50123 130 2748.15 0 0 517508 2.65235 22006.5
7.10500479 -0.70976 3611411 7343813 9.50123 131 2747.39 0 0 518268 2.65112 22010.1
7.10550261 -0.709141 3608571 7333503 9.50123 132 2747.39 0 0 503815 2.678 22013.9
7.10599995 -0.708343 3608521 7327548 9.50123 133 2747.39 0 0 518018 2.64939 22017.8
7.10650349 -0.707405 3610109 7323897 9.50123 134 2747.39 0 0 517480 2.64993 22021.6
7.10700178 -0.706172 3613067 7320868 9.50123 135 2747.39 0 0 505581 2.67277 22025.5
7.10750532 -0.704743 3610988 7306212 9.50123 136 2748.15 0 0 518801 2.64496 22029.5
7.10800266 -0.703016 3613721 7299122 9.50123 137 2748.91 0 0 517687 2.64614 22033.1
7.10850096 -0.700729 3612764 7280520 9.50123 138 2750.44 0 0 516786 2.64533 22037
7.10900497 -0.697721 3615309 7263768 9.50123 139 2751.2 0 0 515652 2.64522 22040.6
7.10950375 -0.693691 3614455 7232842 9.50123 140 2752.73 0 0 507580 2.65673 22044.7
7.11000156 -0.688021 3616190 7195404 9.50123 141 2754.25 0 0 511254 2.64433 22048.3
7.11050034 -0.678839 3611316 7120026 9.50123 142 2756.54 0 0 509893 2.63646 22052.1
7.11100435 -0.662561 3610244 7002984 9.50123 143 2757.31 0 0 501492 2.6365 22055.7
7.11150265 -0.629352 3605066 6764529 9.50123 144 2758.07 0 0 494950 2.61499 22059.5
7.11200142 -0.566587 3604603 6352185 9.50123 145 2757.31 0 0 475928 2.59129 22063.3
7.11250067 -0.498263 3601646 5927806 9.50123 146 2756.54 0 0 458833 2.55872 22067.1
7.11300516 -0.449873 3603310 5650398 9.50123 147 2755.02 0 0 452790 2.52405 22071
7.11350346 -0.41621 3599677 5457844 9.50123 148 2754.25 0 0 429870 2.54133 22074.5
7.11400318 -0.387468 3596925 5299154 9.50123 149 2752.73 0 0 425934 2.52102 22078.3
7.11450243 -0.360537 3599230 5161653 9.50123 150 2750.44 0 0 410028 2.53279 22082.7
7.1150012 -0.336445 3602440 5043280 9.50123 151 2748.91 0 0 398058 2.53921 22086.3
7.11550093 -0.318594 3600419 4951272 9.50123 152 2748.15 0 0 394974 2.52858 22090.1
7.1160059 -0.30759 3603077 4900702 9.50123 153 2747.39 0 0 389961 2.53109 22093.7
7.11650467 -0.301895 3601028 4870098 9.50123 154 2746.62 0 0 382979 2.54289 22097.5
7.11700487 -0.297911 3600489 4850012 9.50123 155 2745.86 0 0 384638 2.53443 22101.3
7.1175046 -0.290412 3600968 4814416 9.50123 156 2745.1 0 0 383086 2.53111 22105.1
7.11800385 -0.273098 3600933 4731729 9.50123 157 2744.34 0 0 375205 2.53457 22108.9
7.11850405 -0.24186 3600936 4586209 9.50123 158 2743.57 0 0 367922 2.52294 22112.7
7.11900425 -0.201549 3604002 4408760 9.50123 159 2742.81 0 0 362528 2.49825 22116.9
7.1195035 -0.15822 3605367 4223411 9.50123 160 2742.81 0 0 347711 2.49703 22120.4
7.12000418 -0.11342 3601925 4034525 9.50123 161 2743.57 0 0 333569 2.49279 22124.1
7.12050438 -0.0660435 3601368 3847245 9.50123 162 2743.57 0 0 327670 2.4631 22127.9
7.1210041 -0.0166404 3600196 3660606 9.50123 163 2743.57 0 0 305631 2.483 22131.7
7.12150478 0.0332635 3601104 3483289 9.50123 164 2742.81 0 0 299172 2.45471 22135.5
7.12200546 0.0786164 3598346 3326291 9.50123 165 2742.81 0 0 284547 2.45871 22139.4
7.12250042 0.1169 3601191 3203887 9.50123 166 2742.05 0 0 274832 2.45596 22142.9
7.1230011 0.150078 3595092 3094082 9.50123 167 2742.05 0 0 267672 2.44748 22146.8
7.1235013 0.178664 3593599 3005638 9.50123 168 2740.52 0 0 267247 2.42007 22150.6
7.12400246 0.203862 3593261 2930572 9.50123 169 2738.99 0 0 264084 2.40668 22154.2
7.12450266 0.226315 3588587 2861780 9.50123 170 2737.47 0 0 251442 2.43198 22158
7.12500429 0.246685 3588008 2803621 9.50123 171 2734.42 0 0 247382 2.42773 22161.9
7.12550545 0.26501 3588183 2752849 9.50123 172 2731.36 0 0 248347 2.40556 22166.2
7.12600088 0.282384 3586410 2704095 9.50123 173 2728.31 0 0 246388 2.39561 22170
7.12650204 0.299702 3588472 2659198 9.50123 174 2725.26 0 0 244560 2.38632 22173.8
7.12700272 0.317226 3588048 2612694 9.50123 175 2722.21 0 0 237568 2.39768 22177.7
7.12750435 0.33672 3589662 2563410 9.50123 176 2719.16 0 0 232005 2.40233 22181.5
7.12800026 0.358059 3591776 2510765 9.50123 177 2716.87 0 0 227539 2.40102 22185.3
7.12850189 0.382651 3595393 2452240 9.50123 178 2715.34 0 0 222566 2.39953 22188.9
7.129004 0.410478 3596448 2385643 9.50123 179 2714.58 0 0 216669 2.39885 22193
7.12950516 0.440198 3600235 2318224 9.50123 180 2713.82 0 0 208318 2.40949 22196.6
7.13000202 0.469439 3600482 2251571 9.50123 181 2714.58 0 0 211293 2.36614 22200.4
7.13050318 0.495858 3597862 2191270 9.50123 182 2715.34 0 0 195489 2.41673 22204
7.13100529 0.517065 3592358 2142009 9.50123 183 2715.34 0 0 191527 2.41447 22207.9
7.13150167 0.528547 3594155 2118614 9.50123 184 2713.82 0 0 195773 2.38156 22211.6
7.13200426 0.527875 3591645 2118557 9.50123 185 2713.05 0 0 196657 2.37703 22215.4
7.13250065 0.515308 3592607 2145923 9.50123 186 2711.53 0 0 193299 2.40708 22219
7.13300323 0.493959 3590824 2191142 9.50123 187 2710.77 0 0 196234 2.41287 22222.9
7.13350582 0.468885 3594315 2248960 9.50123 188 2709.24 0 0 203004 2.405 22227
7.13400221 0.443034 3595316 2308499 9.50123 189 2708.48 0 0 206843 2.41239 22230.5
7.13450527 0.41888 3595521 2365074 9.50123 190 2708.48 0 0 211551 2.4141 22234.7
7.13500214 0.397816 3598795 2417618 9.50123 191 2708.48 0 0 216473 2.41307 22238.2
7.13550472 0.380408 3597023 2458861 9.50123 192 2709.24 0 0 220497 2.41157 22241.9
7.13600206 0.367457 3597785 2491441 9.50123 193 2710 0 0 218344 2.43454 22245.5
7.13650513 0.358322 3593883 2511578 9.50123 194 2710.77 0 0 224825 2.41334 22249.6
7.13700247 0.352971 3596219 2526695 9.50123 195 2710.77 0 0 226306 2.41278 22253.2
7.13750553 0.350787 3593873 2530568 9.50123 196 2711.53 0 0 226485 2.41352 22257
7.13800287 0.351808 3596282 2529679 9.50123 197 2711.53 0 0 226570 2.41279 22260.6
7.13850021 0.355696 3595966 2519642 9.50123 198 2712.29 0 0 226937 2.4072 22264.1
7.13900375 0.362167 3594949 2502681 9.50123 199 2713.05 0 0 223930 2.41378 22267.9
7.13950157 0.370073 3596698 2484182 9.50123 200 2713.82 0 0 222129 2.41444 22271.5
7.14000511 0.378973 3595012 2461015 9.50123 201 2714.58 0 0 221528 2.40778 22275.3
7.14050293 0.386938 3592233 2439605 9.50123 202 2715.34 0 0 219669 2.40747 22278.9
7.1410017 0.394496 3547197 2390880 9.50123 203 2715.34 0 0 214595 2.41066 22283
7.14150476 0.399149 3613443 2424225 9.50123 204 2704.66 0 0 217716 2.41007 22286.5
7.14200354 0.401809 3608449 2414445 9.50123 205 2710 0 0 217067 2.40902 22290.1
7.14250135 0.402233 3606975 2412435 9.50123 206 2713.82 0 0 217076 2.40814 22293.7
7.14300585 0.400732 3601476 2412374 9.50123 207 2717.63 0 0 217003 2.40845 22297.5
7.14350414 0.397783 3599399 2418103 9.50123 208 2719.92 0 0 218400 2.40441 22301.1
7.14400244 0.394401 3595359 2423573 9.50123 209 2722.21 0 0 214350 2.42539 22304.7
7.14450169 0.391274 3455241 2336415 9.50123 210 2722.97 0 0 210392 2.4074 22308.5
7.14499998 0.388698 3635074 2464357 9.50123 211 2690.17 0 0 218741 2.4218 22312.2
7.14550447 0.388295 3623323 2457383 9.50123 212 2700.85 0 0 224136 2.3946 22316
7.14600325 0.390002 3614469 2447195 9.50123 213 2709.24 0 0 214869 2.43267 22319.6
7.14650249 0.394113 3607550 2432491 9.50123 214 2715.34 0 0 220779 2.39951 22323.1
7.14700174 0.40014 3601826 2414037 9.50123 215 2719.92 0 0 217938 2.40484 22326.7
7.14750051 0.408494 3599358 2392315 9.50123 216 2722.97 0 0 214955 2.40959 22330.3
7.14799976 0.418287 3596344 2367017 9.50123 217 2725.26 0 0 213571 2.40541 22333.9
7.14850473 0.428812 3592873 2339974 9.50123 218 2726.79 0 0 210668 2.40761 22337.7
7.14900446 0.438962 3594063 2317111 9.50123 219 2727.55 0 0 209862 2.40162 22341.3
7.14950371 0.448587 3591855 2293507 9.50123 220 2729.08 0 0 209456 2.39332 22344.8
7.15000343 0.456674 3592414 2275388 9.50123 221 2729.84 0 0 206316 2.40049 22348.4
7.15050316 0.462882 3592129 2261127 9.50123 222 2730.6 0 0 205905 2.3962 22352
7.15100288 0.467694 3591093 2249622 9.50123 223 2731.36 0 0 205170 2.39468 22355.6
7.15150309 0.471612 3593453 2242299 9.50123 224 2732.13 0 0 204678 2.39382 22359.5
7.15200233 0.474895 3590533 2233133 9.50123 225 2733.65 0 0 204811 2.38907 22363
7.15250254 0.477585 3593184 2228778 9.50123 226 2734.42 0 0 202658 2.39769 22366.6
7.15300274 0.480247 3592946 2222706 9.50123 227 2735.94 0 0 201191 2.40222 22370.2
7.15350294 0.482319 3589908 2216229 9.50123 228 2737.47 0 0 200638 2.40206 22373.8
7.15400314 0.483925 3591171 2213452 9.50123 229 2738.23 0 0 205320 2.37774 22377.4
7.15450382 0.484133 3589623 2212038 9.50123 230 2739.76 0 0 197185 2.41752 22380.9
