# example of chi(k) data that is not on a uniform k-grid
#----------------------------
#    k                  chi
1.2864742539E+000  3.1479933847E-001
1.3087227460E+000  3.1415187811E-001
1.3414037632E+000  3.1374273859E-001
1.3627557654E+000  3.1276878308E-001
1.3828297025E+000  3.1159308298E-001
1.4007439723E+000  3.0860239428E-001
1.4267340173E+000  3.0065752757E-001
1.4431947672E+000  2.9422299882E-001
1.4567699839E+000  2.8609812412E-001
1.4737857633E+000  2.7604719646E-001
1.4923669743E+000  2.6193066797E-001
1.5089814035E+000  2.4983803712E-001
1.5167878777E+000  2.4261788880E-001
1.5297101412E+000  2.3384256070E-001
1.5459232859E+000  2.2291669948E-001
1.5636475038E+000  2.1341667755E-001
1.5745196556E+000  2.0630252297E-001
1.5869718952E+000  1.9866105220E-001
1.5993271854E+000  1.9369901822E-001
1.6148415204E+000  1.9014723509E-001
1.6245637125E+000  1.8827849398E-001
1.6366352391E+000  1.8610575264E-001
1.6541808021E+000  1.8496548208E-001
1.6683990248E+000  1.8626925126E-001
1.6809364848E+000  1.8836464133E-001
1.6926060132E+000  1.9269465908E-001
1.7141765942E+000  2.0255207653E-001
1.7301780562E+000  2.1268076684E-001
1.7467842815E+000  2.2545863341E-001
1.7624897265E+000  2.3791557204E-001
1.7743624759E+000  2.5234976962E-001
1.7986025203E+000  2.7185405352E-001
1.8037024688E+000  2.7803681424E-001
1.8210795798E+000  2.9047792360E-001
1.8411455988E+000  3.0385468129E-001
1.8581725851E+000  3.1348820552E-001
1.8694377540E+000  3.1792426089E-001
1.8841210752E+000  3.2090314725E-001
1.9035226571E+000  3.2152871977E-001
1.9165761649E+000  3.2037020108E-001
1.9309010606E+000  3.1701001531E-001
1.9430954907E+000  3.1294821957E-001
1.9659230468E+000  3.0456267493E-001
1.9765742045E+000  2.9930462125E-001
1.9884885632E+000  2.9270259172E-001
2.0009878700E+000  2.8613736345E-001
2.0166657373E+000  2.7735344918E-001
2.0270502845E+000  2.7164746375E-001
2.0367377116E+000  2.6490484564E-001
2.0444546036E+000  2.5819794730E-001
2.0566137985E+000  2.5012871876E-001
2.0661626185E+000  2.4530524515E-001
2.0756675109E+000  2.3886345119E-001
2.0800882640E+000  2.3543017667E-001
2.1033007526E+000  2.2246121597E-001
2.1107743072E+000  2.1778336019E-001
2.1237897462E+000  2.1113062027E-001
2.1373399603E+000  2.0435723479E-001
2.1617591230E+000  1.9413600493E-001
2.1708454934E+000  1.8871977407E-001
2.1841037924E+000  1.8401913990E-001
2.1984762032E+000  1.7921403811E-001
2.2169026650E+000  1.7249488057E-001
2.2298871375E+000  1.6792706396E-001
2.2439663291E+000  1.6303920228E-001
2.2567950961E+000  1.5864621825E-001
2.2730179027E+000  1.5264557592E-001
2.2851094276E+000  1.4839696490E-001
2.2959945091E+000  1.4425429627E-001
2.3045516779E+000  1.4084609327E-001
2.3187434498E+000  1.3512900546E-001
2.3289079771E+000  1.3091598166E-001
2.3446318786E+000  1.2541380517E-001
2.3463103324E+000  1.2367609415E-001
2.3585824972E+000  1.1870499153E-001
2.3685760651E+000  1.1529717941E-001
2.3752150842E+000  1.1226418407E-001
2.3840383504E+000  1.0891520352E-001
2.3922806077E+000  1.0592623885E-001
2.4004945649E+000  1.0328603495E-001
2.4092252522E+000  1.0076862977E-001
2.4206364919E+000  9.6947675070E-002
2.4276737128E+000  9.4099911605E-002
2.4373840149E+000  9.1144403253E-002
2.4459830326E+000  8.7986602364E-002
2.4524125093E+000  8.5334551109E-002
2.4689444963E+000  8.0215864989E-002
2.4837820367E+000  7.5707116035E-002
2.4885324583E+000  7.3533150315E-002
2.5048260630E+000  6.8496438767E-002
2.5189313957E+000  6.3277374977E-002
2.5319218246E+000  5.9057181680E-002
2.5427824988E+000  5.5650081339E-002
2.5525690051E+000  5.2686393839E-002
2.5653891081E+000  4.6408184954E-002
2.5730505098E+000  4.3622739843E-002
2.5872910942E+000  3.8983472419E-002
2.5979203059E+000  3.4470502938E-002
2.6105177008E+000  3.0118115105E-002
2.6215533346E+000  2.6532199802E-002
2.6335394673E+000  2.1295611836E-002
2.6444790311E+000  1.7048662148E-002
2.6563617197E+000  1.2025905909E-002
2.6642540693E+000  8.5965036438E-003
2.6794793442E+000  1.9487446093E-003
2.6868154395E+000  -2.1289385133E-003
2.6975389573E+000  -7.8817829476E-003
2.7048260713E+000  -1.1755380422E-002
2.7125774157E+000  -1.6165121139E-002
2.7198242381E+000  -2.1498697237E-002
2.7284950185E+000  -2.9179758729E-002
2.7347401515E+000  -3.2917799160E-002
2.7404922580E+000  -3.6373954288E-002
2.7481430050E+000  -4.1740234836E-002
2.7567247153E+000  -4.8812034688E-002
2.7657542996E+000  -5.4577343292E-002
2.7742815333E+000  -6.0775997456E-002
2.7832541594E+000  -6.7539960419E-002
2.7917279409E+000  -7.5103612628E-002
2.8062616959E+000  -8.5018275621E-002
2.8179278656E+000  -9.3205546719E-002
2.8276902528E+000  -1.0034084140E-001
2.8406545806E+000  -1.0863926015E-001
2.8549392736E+000  -1.1795910390E-001
2.8673227977E+000  -1.2501827745E-001
2.8732662000E+000  -1.2978808336E-001
2.8842064586E+000  -1.3640805186E-001
2.8969178753E+000  -1.4478822758E-001
2.9055118079E+000  -1.5004669835E-001
2.9149808878E+000  -1.5624247855E-001
2.9235217232E+000  -1.6144636787E-001
2.9329326579E+000  -1.6737935657E-001
2.9400826750E+000  -1.7145215082E-001
2.9507752161E+000  -1.7690506343E-001
2.9538865831E+000  -1.7914156526E-001
2.9645293363E+000  -1.8478875185E-001
2.9716033292E+000  -1.8748052056E-001
2.9782199375E+000  -1.9011058343E-001
2.9852614887E+000  -1.9269009504E-001
2.9944783963E+000  -1.9605126602E-001
3.0001699112E+000  -1.9819437413E-001
3.0067236564E+000  -2.0058281051E-001
3.0132631475E+000  -2.0243446038E-001
3.0215261849E+000  -2.0418917854E-001
3.0241308745E+000  -2.0485996063E-001
3.0349596861E+000  -2.0782575142E-001
3.0414384666E+000  -2.0922835339E-001
3.0483339886E+000  -2.1039469806E-001
3.0586481239E+000  -2.1248808166E-001
3.0667888802E+000  -2.1394260690E-001
3.0774675930E+000  -2.1522546207E-001
3.0902333384E+000  -2.1678419917E-001
3.0957488135E+000  -2.1770801527E-001
3.1046377286E+000  -2.1864173469E-001
3.1139227103E+000  -2.1971754057E-001
3.1219193353E+000  -2.1994436157E-001
3.1282180209E+000  -2.2049167206E-001
3.1399417616E+000  -2.2047324958E-001
3.1474553922E+000  -2.2036637088E-001
3.1566144310E+000  -2.2051794698E-001
3.1694754260E+000  -2.1998550249E-001
3.1756797896E+000  -2.1956090721E-001
3.1847576589E+000  -2.1910082649E-001
3.1933988251E+000  -2.1821116702E-001
3.2048841377E+000  -2.1698608844E-001
3.2126543583E+000  -2.1571847752E-001
3.2228497911E+000  -2.1456946359E-001
3.2289515986E+000  -2.1342181971E-001
3.2403108965E+000  -2.1169435227E-001
3.2427398548E+000  -2.1079853717E-001
3.2528409915E+000  -2.0912098391E-001
3.2588866452E+000  -2.0757595910E-001
3.2653230048E+000  -2.0630093493E-001
3.2713455910E+000  -2.0430521785E-001
3.2773571099E+000  -2.0283384934E-001
3.2837572666E+000  -2.0106275819E-001
3.2897461051E+000  -1.9961777902E-001
3.2997033482E+000  -1.9701395262E-001
3.3056632974E+000  -1.9521267702E-001
3.3131971758E+000  -1.9331858855E-001
3.3207139618E+000  -1.9122996355E-001
3.3325480516E+000  -1.8782731309E-001
3.3423777862E+000  -1.8529633098E-001
3.3521786969E+000  -1.8269813570E-001
3.3619510356E+000  -1.8078482292E-001
3.3740294273E+000  -1.7761828175E-001
3.3763621897E+000  -1.7684317291E-001
3.3907120942E+000  -1.7387231563E-001
3.4368400757E+000  -1.6231588673E-001
3.4793411483E+000  -1.5322037199E-001
3.5231920890E+000  -1.4436796550E-001
3.5804582871E+000  -1.3012137004E-001
3.6411501914E+000  -1.1489623954E-001
3.7008469147E+000  -9.9318959898E-002
3.7435055224E+000  -8.6388293552E-002
3.7898408180E+000  -6.9433602992E-002
3.8622098643E+000  -4.8386838182E-002
3.9111659369E+000  -3.2529705936E-002
3.9505583360E+000  -1.9259905851E-002
3.9997453864E+000  -2.6647436999E-003
4.0583709732E+000  1.6143697680E-002
4.1161616533E+000  2.9599992212E-002
4.1583466169E+000  3.9506356406E-002
4.2138325615E+000  5.5567322993E-002
4.2781167511E+000  7.3569726458E-002
4.3253996331E+000  8.2737310293E-002
4.3646613026E+000  8.5120115801E-002
4.4270521655E+000  8.1313180360E-002
4.4882835200E+000  7.4930612772E-002
4.5270021853E+000  7.1428574854E-002
4.5834651462E+000  6.9349094870E-002
4.6454597109E+000  6.9660139991E-002
4.6865204988E+000  7.0204497559E-002
4.7283348957E+000  7.1205458698E-002
4.7876320385E+000  7.3334231794E-002
4.8443078573E+000  7.6241019513E-002
4.8847717568E+000  7.7868716127E-002
4.9437851719E+000  7.8904691844E-002
4.9997407879E+000  7.8304817480E-002
5.0397378876E+000  7.6304276549E-002
5.0977297119E+000  6.9185629666E-002
5.1545600623E+000  5.9115337915E-002
5.1996780877E+000  5.0949973842E-002
5.2529085596E+000  4.1026154083E-002
5.3103022650E+000  3.0488584972E-002
5.3519017495E+000  2.1545269936E-002
5.4007179463E+000  9.5267908195E-003
5.4589615538E+000  -3.1640791353E-003
5.5032531830E+000  -1.1974740753E-002
5.5604228711E+000  -2.1175328635E-002
5.6170107189E+000  -2.9254009025E-002
5.6570509222E+000  -3.5529799955E-002
5.7156671243E+000  -4.3706435690E-002
5.7720970752E+000  -5.0046279476E-002
5.8119719894E+000  -5.4179896306E-002
5.8732878046E+000  -5.7656186060E-002
5.9206866381E+000  -5.8732056043E-002
5.9637496356E+000  -5.7790233825E-002
6.0213416982E+000  -5.3785300894E-002
6.0699626099E+000  -4.8614836864E-002
6.1233425975E+000  -4.1556653471E-002
6.1790227120E+000  -3.5188734540E-002
6.2196645887E+000  -3.0915339651E-002
6.2803432220E+000  -2.4217124295E-002
6.3321571345E+000  -1.8861251657E-002
6.3782034858E+000  -1.2780927744E-002
6.4351451799E+000  -5.8233188809E-003
6.4747874819E+000  -1.4242016775E-003
6.5300833590E+000  3.4360388448E-003
6.5825230950E+000  6.6161886512E-003
6.6290078923E+000  9.2347894514E-003
6.6887197703E+000  9.9695891690E-003
6.7305733267E+000  9.9151246403E-003
6.7890054364E+000  9.0830097505E-003
6.8369655408E+000  7.3931968065E-003
6.8908787267E+000  6.9553785710E-003
6.9419163648E+000  7.1809534236E-003
6.9813125848E+000  8.2511644580E-003
7.0399003570E+000  1.1498322249E-002
7.0846809347E+000  1.4034569949E-002
7.1460944421E+000  1.6917450134E-002
7.1891185570E+000  1.8329474227E-002
7.2422222105E+000  1.9830970953E-002
7.2976370913E+000  2.1390874371E-002
7.3433478173E+000  2.2591525339E-002
7.4004881512E+000  2.3605721484E-002
7.4402781955E+000  2.3446566417E-002
7.4973799007E+000  2.1267572039E-002
7.5417061011E+000  1.8781581057E-002
7.6023620945E+000  1.5057801398E-002
7.6447065919E+000  1.2474659062E-002
7.7008037344E+000  6.5396751128E-003
7.7505715651E+000  5.7088975518E-003
7.8048992182E+000  1.6845326639E-003
7.8515008493E+000  -2.4812038031E-003
7.8999872149E+000  -6.4487272329E-003
7.9532942996E+000  -9.9858219539E-003
8.0011638295E+000  -1.3105014326E-002
8.0555933646E+000  -1.5520943495E-002
8.1007529425E+000  -1.6627246379E-002
8.1580573230E+000  -1.7719342086E-002
8.2069711122E+000  -1.8210001119E-002
8.2579790528E+000  -1.7676540731E-002
8.3021958737E+000  -1.6048349094E-002
8.3568631254E+000  -1.3461674575E-002
8.4050883622E+000  -1.0777882949E-002
8.4590906926E+000  -8.3265015565E-003
8.5058108000E+000  -6.9306114723E-003
8.5607106852E+000  -5.7493696502E-003
8.6097755572E+000  -6.3527784180E-003
8.6602293541E+000  -6.6611603706E-003
8.7064730245E+000  -6.8471132002E-003
8.7587671510E+000  -6.2287274555E-003
8.8103040785E+000  -5.2113209329E-003
8.8585791020E+000  -4.6054579460E-003
8.9124839330E+000  -3.6210641003E-003
8.9603549102E+000  -2.7609083610E-003
9.0165623419E+000  -2.0242272494E-003
9.0564969340E+000  -1.2546710235E-003
9.1121113396E+000  -3.8227143454E-004
9.1576494111E+000  5.3259208225E-004
9.2163559147E+000  2.1261125290E-003
9.2596809824E+000  3.7391518430E-003
9.3160544967E+000  5.9803425954E-003
9.3652255651E+000  7.7849224622E-003
9.4128852004E+000  9.2045617226E-003
9.4639105536E+000  1.0100278488E-002
9.5116275640E+000  1.0602315917E-002
9.5696709523E+000  1.0384512036E-002
9.6093553393E+000  9.5319459235E-003
9.6687122408E+000  8.7068014165E-003
9.7159636880E+000  8.2246795220E-003
9.7664805143E+000  7.9588053919E-003
9.8154005413E+000  7.3280753515E-003
9.8628805805E+000  6.8816347543E-003
9.9200593323E+000  5.8478610261E-003
9.9619047790E+000  4.3155891701E-003
1.0019959094E+001  2.8940632638E-003
1.0068299208E+001  1.4589250491E-003
1.0116019183E+001  9.0004156539E-005
1.0165580724E+001  -1.2170662180E-003
1.0214130982E+001  -1.9244515407E-003
1.0270504180E+001  -2.3215427583E-003
1.0316907374E+001  -2.8482283825E-003
1.0367786951E+001  -3.1006885431E-003
1.0423329155E+001  -3.0248732166E-003
1.0464290751E+001  -3.2269530434E-003
1.0518699671E+001  -4.9884461215E-003
1.0568235319E+001  -3.7576099796E-003
1.0614449585E+001  -3.9275256362E-003
1.0670060637E+001  -4.6152593998E-003
1.0716692951E+001  -4.8012471133E-003
1.0769095718E+001  -4.7344363752E-003
1.0818576531E+001  -4.6424093165E-003
1.0863363515E+001  -4.6311058262E-003
1.0919629711E+001  -3.9956116792E-003
1.0968072532E+001  -3.9420251045E-003
1.1015111076E+001  -3.3234892620E-003
1.1071909853E+001  -2.4862366230E-003
1.1115440048E+001  -2.7237497979E-003
1.1164326183E+001  -1.4560789371E-003
1.1220486594E+001  -8.1706580370E-004
1.1262393995E+001  -2.0175805611E-004
1.1316212557E+001  5.3940521295E-004
1.1370122615E+001  1.0247870188E-003
1.1410790521E+001  1.3253246018E-003
1.1464370305E+001  2.1001880407E-003
1.1516903277E+001  2.5527352931E-003
1.1560574074E+001  2.7840965615E-003
1.1615157629E+001  3.1853045491E-003
1.1667911442E+001  3.1978820418E-003
1.1710682975E+001  3.1680829900E-003
1.1762785274E+001  3.0161529520E-003
1.1816545846E+001  2.8531264152E-003
1.1859666526E+001  2.8424087509E-003
1.1912659439E+001  2.6885182378E-003
1.1967281913E+001  2.8524129289E-003
1.2012155739E+001  2.5705905679E-003
1.2060236084E+001  2.4202852919E-003
1.2114626445E+001  2.4604467743E-003
1.2160575260E+001  1.9076363587E-003
1.2209575861E+001  1.7649404121E-003
1.2265657807E+001  1.3972527692E-003
1.2311469296E+001  8.7058535057E-004
1.2357110949E+001  6.9424018321E-005
1.2413054914E+001  -5.3075159523E-004
1.2463379300E+001  -1.0920114425E-003
1.2510040208E+001  -1.6671423691E-003
1.2561752025E+001  -1.9889604189E-003
1.2611691173E+001  -2.2958797600E-003
1.2658945702E+001  -2.5111448861E-003
1.2707057230E+001  -2.5907823415E-003
1.2761055861E+001  -2.9391450299E-003
1.2809603425E+001  -2.7420471161E-003
1.2855211837E+001  -2.6703748189E-003
1.2905540644E+001  -2.6161230414E-003
1.2958813490E+001  -2.2957840893E-003
1.3007127386E+001  -2.3122278216E-003
1.3052950428E+001  -2.1918838531E-003
1.3107426285E+001  -1.8156515490E-003
1.3157388754E+001  -1.7543714395E-003
1.3204777377E+001  -1.3913648248E-003
1.3252392628E+001  -9.0410719543E-004
1.3307235379E+001  -5.3921840168E-004
1.3356941677E+001  -4.0230009597E-004
1.3402449911E+001  -2.7260560855E-004
1.3450828825E+001  -1.3541601933E-004
1.3505448759E+001  1.5854696384E-004
1.3556267533E+001  2.4117698948E-004
1.3603810067E+001  3.1390736822E-004
1.3650417985E+001  4.8468896126E-004
1.3702997579E+001  8.3049812915E-004
1.3753563482E+001  9.0029233093E-004
1.3802708271E+001  1.1753940650E-003
1.3849025832E+001  1.3082046033E-003
1.3901043018E+001  1.5493862442E-003
1.3952678183E+001  1.6651431015E-003
1.4002248739E+001  1.6296203054E-003
1.4050336931E+001  1.8245584242E-003
1.4099936426E+001  1.7607277478E-003
1.4152236796E+001  1.7463172883E-003
1.4201942410E+001  1.5622854947E-003
1.4250738016E+001  1.5561404310E-003
1.4300193019E+001  1.4588479966E-003
1.4352952245E+001  1.3968766657E-003
1.4404880573E+001  2.0463112361E-003
1.4453898962E+001  8.8001262032E-004
1.4502751674E+001  3.6372396267E-004
1.4551530555E+001  2.8087677899E-004
1.4606436684E+001  -1.1999502246E-004
1.4657735580E+001  -2.8997794864E-004
1.4706357325E+001  -5.9607982462E-004
1.4755263527E+001  -8.2693003534E-004
1.4805249099E+001  -9.0775542334E-004
1.4858599544E+001  -7.0030406837E-004
1.4910175008E+001  -8.8353301295E-004
1.4960081565E+001  -7.3913599017E-004
1.5008685602E+001  -8.2893119034E-004
1.5058701396E+001  -6.0587805790E-004
1.5110722839E+001  -6.0792544427E-004
1.5163171609E+001  -5.4875660986E-004
1.5213455823E+001  -5.3276135610E-004
1.5265121817E+001  -4.6252137076E-004
1.5313871678E+001  -4.7936113709E-004
1.5363150182E+001  -2.6152214789E-004
1.5415335988E+001  -1.4838045940E-004
1.5467091201E+001  5.2621866614E-005
1.5518758369E+001  1.5511179960E-005
1.5569074131E+001  -1.3017384872E-005
1.5618051546E+001  -1.4078631249E-004
1.5668802209E+001  9.5960593569E-005
1.5719639459E+001  2.2350850659E-004
1.5772226556E+001  2.9031384324E-004
1.5824970597E+001  4.6547543659E-004
1.5873985143E+001  4.7576251431E-004
1.5921118036E+001  5.0464712787E-004
1.5970577010E+001  6.5174640247E-004
1.6023732790E+001  8.1189635994E-004
1.6076141435E+001  6.9880842489E-004
1.6128217053E+001  7.9243849440E-004
1.6177205100E+001  5.8817352227E-004
1.6227824364E+001  5.4173686305E-004
1.6276028879E+001  3.4677751955E-004
1.6327065119E+001  3.8722864570E-004
1.6379144129E+001  3.7729399271E-004
1.6429620452E+001  2.4944025715E-004
1.6481773501E+001  -3.9669911699E-005
1.6533206456E+001  -2.1705260096E-004
1.6582264242E+001  -3.3544190171E-004
1.6629757001E+001  -5.5517598596E-004
1.6680025638E+001  -7.4132341175E-004
1.6731084448E+001  -6.6853192273E-004
1.6782613455E+001  -9.0411753841E-004
1.6836245209E+001  -7.5135162362E-004
1.6885588296E+001  -1.0341288283E-003
1.6936182350E+001  -1.0386306478E-003
1.6989252087E+001  -9.6901934257E-004
1.7037150794E+001  -1.0519301220E-003
1.7084684789E+001  -7.8359764144E-004
1.7134614392E+001  -9.5083828247E-004
1.7186155187E+001  -7.1610892315E-004
1.7237922508E+001  -7.7865184290E-004
1.7291204524E+001  -5.7845882826E-004
1.7340236788E+001  -4.9774407443E-004
1.7391620933E+001  -3.3962797528E-004
1.7441349010E+001  -1.6522723571E-004
1.7490635604E+001  -2.5783097300E-005
1.7539035529E+001  -1.0207614084E-004
1.7588645256E+001  1.4725838166E-004
1.7637966650E+001  3.9720281866E-004
1.7690266323E+001  6.6023359678E-004
1.7742411833E+001  8.6925771146E-004
1.7791749501E+001  9.6976119974E-004
1.7844554463E+001  1.2586774734E-003
1.7893977177E+001  1.6329280358E-003
1.7914499212E+001  1.6916487975E-003
