    Energy    <xanes>    
  -30.0000  3.1392746E-04
  -29.9000  3.1512683E-04
  -29.8000  3.1633394E-04
  -29.7000  3.1754888E-04
  -29.6000  3.1877172E-04
  -29.5000  3.2000253E-04
  -29.4000  3.2124138E-04
  -29.3000  3.2248836E-04
  -29.2000  3.2374353E-04
  -29.1000  3.2500698E-04
  -29.0000  3.2627879E-04
  -28.9000  3.2755903E-04
  -28.8000  3.2884778E-04
  -28.7000  3.3014514E-04
  -28.6000  3.3145117E-04
  -28.5000  3.3276597E-04
  -28.4000  3.3408962E-04
  -28.3000  3.3542220E-04
  -28.2000  3.3676381E-04
  -28.1000  3.3811452E-04
  -28.0000  3.3947444E-04
  -27.9000  3.4084364E-04
  -27.8000  3.4222223E-04
  -27.7000  3.4361029E-04
  -27.6000  3.4500792E-04
  -27.5000  3.4641522E-04
  -27.4000  3.4783227E-04
  -27.3000  3.4925918E-04
  -27.2000  3.5069606E-04
  -27.1000  3.5214299E-04
  -27.0000  3.5360008E-04
  -26.9000  3.5506743E-04
  -26.8000  3.5654515E-04
  -26.7000  3.5803334E-04
  -26.6000  3.5953212E-04
  -26.5000  3.6104158E-04
  -26.4000  3.6256184E-04
  -26.3000  3.6409302E-04
  -26.2000  3.6563522E-04
  -26.1000  3.6718856E-04
  -26.0000  3.6875315E-04
  -25.9000  3.7032912E-04
  -25.8000  3.7191658E-04
  -25.7000  3.7351566E-04
  -25.6000  3.7512648E-04
  -25.5000  3.7674915E-04
  -25.4000  3.7838382E-04
  -25.3000  3.8003060E-04
  -25.2000  3.8168964E-04
  -25.1000  3.8336105E-04
  -25.0000  3.8504497E-04
  -24.9000  3.8674154E-04
  -24.8000  3.8845090E-04
  -24.7000  3.9017318E-04
  -24.6000  3.9190853E-04
  -24.5000  3.9365709E-04
  -24.4000  3.9541901E-04
  -24.3000  3.9719443E-04
  -24.2000  3.9898351E-04
  -24.1000  4.0078639E-04
  -24.0000  4.0260323E-04
  -23.9000  4.0443420E-04
  -23.8000  4.0627943E-04
  -23.7000  4.0813911E-04
  -23.6000  4.1001338E-04
  -23.5000  4.1190243E-04
  -23.4000  4.1380641E-04
  -23.3000  4.1572549E-04
  -23.2000  4.1765986E-04
  -23.1000  4.1960969E-04
  -23.0000  4.2157516E-04
  -22.9000  4.2355644E-04
  -22.8000  4.2555373E-04
  -22.7000  4.2756720E-04
  -22.6000  4.2959706E-04
  -22.5000  4.3164350E-04
  -22.4000  4.3370670E-04
  -22.3000  4.3578688E-04
  -22.2000  4.3788423E-04
  -22.1000  4.3999896E-04
  -22.0000  4.4213128E-04
  -21.9000  4.4428140E-04
  -21.8000  4.4644954E-04
  -21.7000  4.4863591E-04
  -21.6000  4.5084074E-04
  -21.5000  4.5306425E-04
  -21.4000  4.5530668E-04
  -21.3000  4.5756826E-04
  -21.2000  4.5984923E-04
  -21.1000  4.6214982E-04
  -21.0000  4.6447029E-04
  -20.9000  4.6681088E-04
  -20.8000  4.6917184E-04
  -20.7000  4.7155344E-04
  -20.6000  4.7395593E-04
  -20.5000  4.7637959E-04
  -20.4000  4.7882468E-04
  -20.3000  4.8129148E-04
  -20.2000  4.8378028E-04
  -20.1000  4.8629134E-04
  -20.0000  4.8882497E-04
  -19.9000  4.9138146E-04
  -19.8000  4.9396111E-04
  -19.7000  4.9656423E-04
  -19.6000  4.9919112E-04
  -19.5000  5.0184211E-04
  -19.4000  5.0451750E-04
  -19.3000  5.0721764E-04
  -19.2000  5.0994286E-04
  -19.1000  5.1269348E-04
  -19.0000  5.1546987E-04
  -18.9000  5.1827236E-04
  -18.8000  5.2110132E-04
  -18.7000  5.2395711E-04
  -18.6000  5.2684011E-04
  -18.5000  5.2975068E-04
  -18.4000  5.3268922E-04
  -18.3000  5.3565611E-04
  -18.2000  5.3865176E-04
  -18.1000  5.4167657E-04
  -18.0000  5.4473095E-04
  -17.9000  5.4781533E-04
  -17.8000  5.5093013E-04
  -17.7000  5.5407580E-04
  -17.6000  5.5725278E-04
  -17.5000  5.6046152E-04
  -17.4000  5.6370249E-04
  -17.3000  5.6697616E-04
  -17.2000  5.7028302E-04
  -17.1000  5.7362354E-04
  -17.0000  5.7699824E-04
  -16.9000  5.8040762E-04
  -16.8000  5.8385221E-04
  -16.7000  5.8733253E-04
  -16.6000  5.9084912E-04
  -16.5000  5.9440255E-04
  -16.4000  5.9799337E-04
  -16.3000  6.0162215E-04
  -16.2000  6.0528949E-04
  -16.1000  6.0899599E-04
  -16.0000  6.1274224E-04
  -15.9000  6.1652889E-04
  -15.8000  6.2035656E-04
  -15.7000  6.2422590E-04
  -15.6000  6.2813759E-04
  -15.5000  6.3209228E-04
  -15.4000  6.3609069E-04
  -15.3000  6.4013352E-04
  -15.2000  6.4422148E-04
  -15.1000  6.4835531E-04
  -15.0000  6.5253578E-04
  -14.9000  6.5676365E-04
  -14.8000  6.6103970E-04
  -14.7000  6.6536474E-04
  -14.6000  6.6973960E-04
  -14.5000  6.7416512E-04
  -14.4000  6.7864215E-04
  -14.3000  6.8317158E-04
  -14.2000  6.8775429E-04
  -14.1000  6.9239123E-04
  -14.0000  6.9708331E-04
  -13.9000  7.0183151E-04
  -13.8000  7.0663682E-04
  -13.7000  7.1150024E-04
  -13.6000  7.1642279E-04
  -13.5000  7.2140555E-04
  -13.4000  7.2644958E-04
  -13.3000  7.3155600E-04
  -13.2000  7.3672594E-04
  -13.1000  7.4196057E-04
  -13.0000  7.4726106E-04
  -12.9000  7.5262865E-04
  -12.8000  7.5806458E-04
  -12.7000  7.6357013E-04
  -12.6000  7.6914661E-04
  -12.5000  7.7479536E-04
  -12.4000  7.8051778E-04
  -12.3000  7.8631527E-04
  -12.2000  7.9218928E-04
  -12.1000  7.9814130E-04
  -12.0000  8.0417286E-04
  -11.9000  8.1028552E-04
  -11.8000  8.1648090E-04
  -11.7000  8.2276064E-04
  -11.6000  8.2912645E-04
  -11.5000  8.3558006E-04
  -11.4000  8.4212326E-04
  -11.3000  8.4875788E-04
  -11.2000  8.5548582E-04
  -11.1000  8.6230902E-04
  -11.0000  8.6922947E-04
  -10.9000  8.7624922E-04
  -10.8000  8.8337037E-04
  -10.7000  8.9059511E-04
  -10.6000  8.9792565E-04
  -10.5000  9.0536430E-04
  -10.4000  9.1291341E-04
  -10.3000  9.2057542E-04
  -10.2000  9.2835284E-04
  -10.1000  9.3624824E-04
  -10.0000  9.4426428E-04
  -9.90000  9.5240370E-04
  -9.80000  9.6066932E-04
  -9.70000  9.6906405E-04
  -9.60000  9.7759089E-04
  -9.50000  9.8625293E-04
  -9.40000  9.9505337E-04
  -9.30000  1.0039955E-03
  -9.20000  1.0130827E-03
  -9.10000  1.0223185E-03
  -9.00000  1.0317066E-03
  -8.90000  1.0412506E-03
  -8.80000  1.0509545E-03
  -8.70000  1.0608222E-03
  -8.60000  1.0708579E-03
  -8.50000  1.0810659E-03
  -8.40000  1.0914506E-03
  -8.30000  1.1020166E-03
  -8.20000  1.1127686E-03
  -8.10000  1.1237116E-03
  -8.00000  1.1348506E-03
  -7.90000  1.1461910E-03
  -7.80000  1.1577383E-03
  -7.70000  1.1694980E-03
  -7.60000  1.1814761E-03
  -7.50000  1.1936788E-03
  -7.40000  1.2061124E-03
  -7.30000  1.2187835E-03
  -7.20000  1.2316990E-03
  -7.10000  1.2448660E-03
  -7.00000  1.2582920E-03
  -6.90000  1.2719848E-03
  -6.80000  1.2859524E-03
  -6.70000  1.3002032E-03
  -6.60000  1.3147460E-03
  -6.50000  1.3295900E-03
  -6.40000  1.3447447E-03
  -6.30000  1.3602201E-03
  -6.20000  1.3760267E-03
  -6.10000  1.3921754E-03
  -6.00000  1.4086776E-03
  -5.90000  1.4255453E-03
  -5.80000  1.4427912E-03
  -5.70000  1.4604284E-03
  -5.60000  1.4784707E-03
  -5.50000  1.4969327E-03
  -5.40000  1.5158299E-03
  -5.30000  1.5351783E-03
  -5.20000  1.5549949E-03
  -5.10000  1.5752979E-03
  -5.00000  1.5961062E-03
  -4.90000  1.6174399E-03
  -4.80000  1.6393205E-03
  -4.70000  1.6617705E-03
  -4.60000  1.6848142E-03
  -4.50000  1.7084771E-03
  -4.40000  1.7327868E-03
  -4.30000  1.7577725E-03
  -4.20000  1.7834657E-03
  -4.10000  1.8099001E-03
  -4.00000  1.8371120E-03
  -3.90000  1.8651408E-03
  -3.80000  1.8940289E-03
  -3.70000  1.9238225E-03
  -3.60000  1.9545719E-03
  -3.50000  1.9863322E-03
  -3.40000  2.0191636E-03
  -3.30000  2.0531329E-03
  -3.20000  2.0883135E-03
  -3.10000  2.1247871E-03
  -3.00000  2.1626449E-03
  -2.90000  2.2019884E-03
  -2.80000  2.2429318E-03
  -2.70000  2.2856027E-03
  -2.60000  2.3301441E-03
  -2.50000  2.3767155E-03
  -2.40000  2.4254926E-03
  -2.30000  2.4766658E-03
  -2.20000  2.5304347E-03
  -2.10000  2.5869978E-03
  -2.00000  2.6465335E-03
  -1.90000  2.7091725E-03
  -1.80000  2.7749617E-03
  -1.70000  2.8438262E-03
  -1.60000  2.9155475E-03
  -1.50000  2.9897758E-03
  -1.40000  3.0661608E-03
  -1.30000  3.1445673E-03
  -1.20000  3.2247884E-03
  -1.10000  3.3068079E-03
  -1.00000  3.3908326E-03
  -0.90000  3.4772566E-03
  -0.80000  3.5666037E-03
  -0.70000  3.6594746E-03
  -0.60000  3.7565082E-03
  -0.50000  3.8583605E-03
  -0.40000  3.9656974E-03
  -0.30000  4.0791959E-03
  -0.20000  4.1995522E-03
  -0.10000  4.3274914E-03
   0.00000  4.4637795E-03
   0.10000  4.6092354E-03
   0.20000  4.7647430E-03
   0.30000  4.9312637E-03
   0.40000  5.1098480E-03
   0.50000  5.3016466E-03
   0.60000  5.5079197E-03
   0.70000  5.7300450E-03
   0.80000  5.9695215E-03
   0.90000  6.2279699E-03
   1.00000  6.5071268E-03
   1.10000  6.8088312E-03
   1.20000  7.1350009E-03
   1.30000  7.4875955E-03
   1.40000  7.8685646E-03
   1.50000  8.2797796E-03
   1.60000  8.7229514E-03
   1.70000  9.1995393E-03
   1.80000  9.7106626E-03
   1.90000  1.0257033E-02
   2.00000  1.0838928E-02
   2.10000  1.1456238E-02
   2.20000  1.2108592E-02
   2.30000  1.2795586E-02
   2.40000  1.3517080E-02
   2.50000  1.4273532E-02
   2.60000  1.5066295E-02
   2.70000  1.5897811E-02
   2.80000  1.6771638E-02
   2.90000  1.7692284E-02
   3.00000  1.8664841E-02
   3.10000  1.9694452E-02
   3.20000  2.0785658E-02
   3.30000  2.1941653E-02
   3.40000  2.3163485E-02
   3.50000  2.4449228E-02
   3.60000  2.5793147E-02
   3.70000  2.7184944E-02
   3.80000  2.8609206E-02
   3.90000  3.0045236E-02
   4.00000  3.1467498E-02
   4.10000  3.2846849E-02
   4.20000  3.4152623E-02
   4.30000  3.5355421E-02
   4.40000  3.6430223E-02
   4.50000  3.7359278E-02
   4.60000  3.8134174E-02
   4.70000  3.8756657E-02
   4.80000  3.9238047E-02
   4.90000  3.9597398E-02
   5.00000  3.9858864E-02
   5.10000  4.0048795E-02
   5.20000  4.0193081E-02
   5.30000  4.0315131E-02
   5.40000  4.0434664E-02
   5.50000  4.0567349E-02
   5.60000  4.0725146E-02
   5.70000  4.0917087E-02
   5.80000  4.1150181E-02
   5.90000  4.1430119E-02
   6.00000  4.1761572E-02
   6.10000  4.2148032E-02
   6.20000  4.2591334E-02
   6.30000  4.3091092E-02
   6.40000  4.3644320E-02
   6.50000  4.4245422E-02
   6.60000  4.4886637E-02
   6.70000  4.5558899E-02
   6.80000  4.6252930E-02
   6.90000  4.6960368E-02
   7.00000  4.7674689E-02
   7.10000  4.8391725E-02
   7.20000  4.9109743E-02
   7.30000  4.9829083E-02
   7.40000  5.0551533E-02
   7.50000  5.1279596E-02
   7.60000  5.2015821E-02
   7.70000  5.2762283E-02
   7.80000  5.3520281E-02
   7.90000  5.4290220E-02
   8.00000  5.5071681E-02
   8.10000  5.5863625E-02
   8.20000  5.6664694E-02
   8.30000  5.7473563E-02
   8.40000  5.8289253E-02
   8.50000  5.9111363E-02
   8.60000  5.9940137E-02
   8.70000  6.0776368E-02
   8.80000  6.1621111E-02
   8.90000  6.2475286E-02
   9.00000  6.3339200E-02
   9.10000  6.4212078E-02
   9.20000  6.5091660E-02
   9.30000  6.5973912E-02
   9.40000  6.6852878E-02
   9.50000  6.7720687E-02
   9.60000  6.8567715E-02
   9.70000  6.9382903E-02
   9.80000  7.0154191E-02
   9.90000  7.0869064E-02
   10.0000  7.1515171E-02
   10.1000  7.2080958E-02
   10.2000  7.2556291E-02
   10.3000  7.2932999E-02
   10.4000  7.3205308E-02
   10.5000  7.3370122E-02
   10.6000  7.3427127E-02
   10.7000  7.3378732E-02
   10.8000  7.3229836E-02
   10.9000  7.2987465E-02
   11.0000  7.2660306E-02
   11.1000  7.2258187E-02
   11.2000  7.1791544E-02
   11.3000  7.1270911E-02
   11.4000  7.0706467E-02
   11.5000  7.0107667E-02
   11.6000  6.9482964E-02
   11.7000  6.8839627E-02
   11.8000  6.8183653E-02
   11.9000  6.7519770E-02
   12.0000  6.6851498E-02
   12.1000  6.6181282E-02
   12.2000  6.5510646E-02
   12.3000  6.4840383E-02
   12.4000  6.4170746E-02
   12.5000  6.3501631E-02
   12.6000  6.2832747E-02
   12.7000  6.2163761E-02
   12.8000  6.1494416E-02
   12.9000  6.0824612E-02
   13.0000  6.0154472E-02
   13.1000  5.9484367E-02
   13.2000  5.8814932E-02
   13.3000  5.8147057E-02
   13.4000  5.7481863E-02
   13.5000  5.6820676E-02
   13.6000  5.6164989E-02
   13.7000  5.5516419E-02
   13.8000  5.4876669E-02
   13.9000  5.4247484E-02
   14.0000  5.3630614E-02
   14.1000  5.3027774E-02
   14.2000  5.2440616E-02
   14.3000  5.1870695E-02
   14.4000  5.1319451E-02
   14.5000  5.0788188E-02
   14.6000  5.0278059E-02
   14.7000  4.9790060E-02
   14.8000  4.9325021E-02
   14.9000  4.8883610E-02
   15.0000  4.8466333E-02
   15.1000  4.8073540E-02
   15.2000  4.7705431E-02
   15.3000  4.7362068E-02
   15.4000  4.7043382E-02
   15.5000  4.6749188E-02
   15.6000  4.6479193E-02
   15.7000  4.6233009E-02
   15.8000  4.6010164E-02
   15.9000  4.5810110E-02
   16.0000  4.5632239E-02
   16.1000  4.5475883E-02
   16.2000  4.5340332E-02
   16.3000  4.5224833E-02
   16.4000  4.5128603E-02
   16.5000  4.5050831E-02
   16.6000  4.4990685E-02
   16.7000  4.4947317E-02
   16.8000  4.4919864E-02
   16.9000  4.4907452E-02
   17.0000  4.4909204E-02
   17.1000  4.4924234E-02
   17.2000  4.4951655E-02
   17.3000  4.4990580E-02
   17.4000  4.5040121E-02
   17.5000  4.5099394E-02
   17.6000  4.5167518E-02
   17.7000  4.5243616E-02
   17.8000  4.5326821E-02
   17.9000  4.5416270E-02
   18.0000  4.5511114E-02
   18.1000  4.5610512E-02
   18.2000  4.5713639E-02
   18.3000  4.5819685E-02
   18.4000  4.5927859E-02
   18.5000  4.6037387E-02
   18.6000  4.6147521E-02
   18.7000  4.6257537E-02
   18.8000  4.6366740E-02
   18.9000  4.6474464E-02
   19.0000  4.6580078E-02
   19.1000  4.6682985E-02
   19.2000  4.6782630E-02
   19.3000  4.6878495E-02
   19.4000  4.6970109E-02
   19.5000  4.7057041E-02
   19.6000  4.7138911E-02
   19.7000  4.7215384E-02
   19.8000  4.7286175E-02
   19.9000  4.7351044E-02
   20.0000  4.7409803E-02
   20.1000  4.7462309E-02
   20.2000  4.7508465E-02
   20.3000  4.7548219E-02
   20.4000  4.7581558E-02
   20.5000  4.7608510E-02
   20.6000  4.7629139E-02
   20.7000  4.7643539E-02
   20.8000  4.7651833E-02
   20.9000  4.7654168E-02
   21.0000  4.7650709E-02
   21.1000  4.7641641E-02
   21.2000  4.7627156E-02
   21.3000  4.7607457E-02
   21.4000  4.7582750E-02
   21.5000  4.7553242E-02
   21.6000  4.7519137E-02
   21.7000  4.7480636E-02
   21.8000  4.7437932E-02
   21.9000  4.7391211E-02
   22.0000  4.7340646E-02
   22.1000  4.7286403E-02
   22.2000  4.7228635E-02
   22.3000  4.7167485E-02
   22.4000  4.7103085E-02
   22.5000  4.7035557E-02
   22.6000  4.6965013E-02
   22.7000  4.6891561E-02
   22.8000  4.6815297E-02
   22.9000  4.6736315E-02
   23.0000  4.6654705E-02
   23.1000  4.6570553E-02
   23.2000  4.6483944E-02
   23.3000  4.6394965E-02
   23.4000  4.6303702E-02
   23.5000  4.6210244E-02
   23.6000  4.6114684E-02
   23.7000  4.6017118E-02
   23.8000  4.5917647E-02
   23.9000  4.5816375E-02
   24.0000  4.5713413E-02
   24.1000  4.5608875E-02
   24.2000  4.5502880E-02
   24.3000  4.5395551E-02
   24.4000  4.5287016E-02
   24.5000  4.5177403E-02
   24.6000  4.5066846E-02
   24.7000  4.4955475E-02
   24.8000  4.4843426E-02
   24.9000  4.4730830E-02
   25.0000  4.4617819E-02
   25.1000  4.4504523E-02
   25.2000  4.4391065E-02
   25.3000  4.4277568E-02
   25.4000  4.4164147E-02
   25.5000  4.4050912E-02
   25.6000  4.3937967E-02
   25.7000  4.3825409E-02
   25.8000  4.3713326E-02
   25.9000  4.3601799E-02
   26.0000  4.3490902E-02
   26.1000  4.3380698E-02
   26.2000  4.3271244E-02
   26.3000  4.3162587E-02
   26.4000  4.3054766E-02
   26.5000  4.2947813E-02
   26.6000  4.2841751E-02
   26.7000  4.2736596E-02
   26.8000  4.2632355E-02
   26.9000  4.2529032E-02
   27.0000  4.2426622E-02
   27.1000  4.2325113E-02
   27.2000  4.2224491E-02
   27.3000  4.2124736E-02
   27.4000  4.2025822E-02
   27.5000  4.1927721E-02
   27.6000  4.1830402E-02
   27.7000  4.1733831E-02
   27.8000  4.1637971E-02
   27.9000  4.1542785E-02
   28.0000  4.1448234E-02
   28.1000  4.1354278E-02
   28.2000  4.1260879E-02
   28.3000  4.1167997E-02
   28.4000  4.1075593E-02
   28.5000  4.0983632E-02
   28.6000  4.0892078E-02
   28.7000  4.0800898E-02
   28.8000  4.0710061E-02
   28.9000  4.0619539E-02
   29.0000  4.0529307E-02
   29.1000  4.0439344E-02
   29.2000  4.0349630E-02
   29.3000  4.0260152E-02
   29.4000  4.0170898E-02
   29.5000  4.0081861E-02
   29.6000  3.9993038E-02
   29.7000  3.9904431E-02
   29.8000  3.9816043E-02
   29.9000  3.9727885E-02
   30.0000  3.9639968E-02
   30.1000  3.9552309E-02
   30.2000  3.9464929E-02
   30.3000  3.9377850E-02
   30.4000  3.9291101E-02
   30.5000  3.9204711E-02
   30.6000  3.9118713E-02
   30.7000  3.9033142E-02
   30.8000  3.8948038E-02
   30.9000  3.8863439E-02
   31.0000  3.8779389E-02
   31.1000  3.8695930E-02
   31.2000  3.8613109E-02
   31.3000  3.8530970E-02
   31.4000  3.8449561E-02
   31.5000  3.8368929E-02
   31.6000  3.8289122E-02
   31.7000  3.8210187E-02
   31.8000  3.8132172E-02
   31.9000  3.8055124E-02
   32.0000  3.7979090E-02
   32.1000  3.7904114E-02
   32.2000  3.7830241E-02
   32.3000  3.7757515E-02
   32.4000  3.7685977E-02
   32.5000  3.7615667E-02
   32.6000  3.7546625E-02
   32.7000  3.7478886E-02
   32.8000  3.7412487E-02
   32.9000  3.7347460E-02
   33.0000  3.7283837E-02
   33.1000  3.7221647E-02
   33.2000  3.7160917E-02
   33.3000  3.7101673E-02
   33.4000  3.7043937E-02
   33.5000  3.6987731E-02
   33.6000  3.6933074E-02
   33.7000  3.6879983E-02
   33.8000  3.6828474E-02
   33.9000  3.6778559E-02
   34.0000  3.6730252E-02
   34.1000  3.6683561E-02
   34.2000  3.6638496E-02
   34.3000  3.6595063E-02
   34.4000  3.6553267E-02
   34.5000  3.6513113E-02
   34.6000  3.6474604E-02
   34.7000  3.6437741E-02
   34.8000  3.6402525E-02
   34.9000  3.6368956E-02
   35.0000  3.6337032E-02
   35.1000  3.6306752E-02
   35.2000  3.6278112E-02
   35.3000  3.6251109E-02
   35.4000  3.6225740E-02
   35.5000  3.6201999E-02
   35.6000  3.6179883E-02
   35.7000  3.6159385E-02
   35.8000  3.6140501E-02
   35.9000  3.6123224E-02
   36.0000  3.6107548E-02
   36.1000  3.6093468E-02
   36.2000  3.6080977E-02
   36.3000  3.6070068E-02
   36.4000  3.6060734E-02
   36.5000  3.6052969E-02
   36.6000  3.6046766E-02
   36.7000  3.6042118E-02
   36.8000  3.6039016E-02
   36.9000  3.6037455E-02
   37.0000  3.6037426E-02
   37.1000  3.6038922E-02
   37.2000  3.6041935E-02
   37.3000  3.6046457E-02
   37.4000  3.6052479E-02
   37.5000  3.6059992E-02
   37.6000  3.6068989E-02
   37.7000  3.6079459E-02
   37.8000  3.6091394E-02
   37.9000  3.6104782E-02
   38.0000  3.6119615E-02
   38.1000  3.6135881E-02
   38.2000  3.6153569E-02
   38.3000  3.6172668E-02
   38.4000  3.6193166E-02
   38.5000  3.6215050E-02
   38.6000  3.6238308E-02
   38.7000  3.6262926E-02
   38.8000  3.6288890E-02
   38.9000  3.6316186E-02
   39.0000  3.6344800E-02
   39.1000  3.6374716E-02
   39.2000  3.6405918E-02
   39.3000  3.6438391E-02
   39.4000  3.6472118E-02
   39.5000  3.6507081E-02
   39.6000  3.6543265E-02
   39.7000  3.6580650E-02
   39.8000  3.6619220E-02
   39.9000  3.6658955E-02
   40.0000  3.6699839E-02
   40.1000  3.6741850E-02
   40.2000  3.6784972E-02
   40.3000  3.6829185E-02
   40.4000  3.6874470E-02
   40.5000  3.6920807E-02
   40.6000  3.6968178E-02
   40.7000  3.7016563E-02
   40.8000  3.7065944E-02
   40.9000  3.7116301E-02
   41.0000  3.7167616E-02
   41.1000  3.7219870E-02
   41.2000  3.7273044E-02
   41.3000  3.7327121E-02
   41.4000  3.7382082E-02
   41.5000  3.7437911E-02
   41.6000  3.7494589E-02
   41.7000  3.7552101E-02
   41.8000  3.7610430E-02
   41.9000  3.7669560E-02
   42.0000  3.7729476E-02
   42.1000  3.7790162E-02
   42.2000  3.7851605E-02
   42.3000  3.7913790E-02
   42.4000  3.7976705E-02
   42.5000  3.8040336E-02
   42.6000  3.8104670E-02
   42.7000  3.8169697E-02
   42.8000  3.8235405E-02
   42.9000  3.8301783E-02
   43.0000  3.8368822E-02
   43.1000  3.8436510E-02
   43.2000  3.8504841E-02
   43.3000  3.8573804E-02
   43.4000  3.8643392E-02
   43.5000  3.8713597E-02
   43.6000  3.8784412E-02
   43.7000  3.8855831E-02
   43.8000  3.8927848E-02
   43.9000  3.9000455E-02
   44.0000  3.9073649E-02
   44.1000  3.9147425E-02
   44.2000  3.9221777E-02
   44.3000  3.9296701E-02
   44.4000  3.9372195E-02
   44.5000  3.9448253E-02
   44.6000  3.9524874E-02
   44.7000  3.9602053E-02
   44.8000  3.9679789E-02
   44.9000  3.9758079E-02
   45.0000  3.9836921E-02
   45.1000  3.9916312E-02
   45.2000  3.9996252E-02
   45.3000  4.0076738E-02
   45.4000  4.0157768E-02
   45.5000  4.0239342E-02
   45.6000  4.0321458E-02
   45.7000  4.0404116E-02
   45.8000  4.0487312E-02
   45.9000  4.0571047E-02
   46.0000  4.0655320E-02
   46.1000  4.0740128E-02
   46.2000  4.0825470E-02
   46.3000  4.0911345E-02
   46.4000  4.0997752E-02
   46.5000  4.1084687E-02
   46.6000  4.1172149E-02
   46.7000  4.1260135E-02
